# Wavelength[cm^-1]  Transmittance
457	0.8827
458	0.8816
459	0.8828
460	0.8795000000000001
461	0.8783000000000001
462	0.8767000000000001
463	0.8751000000000001
464	0.8736000000000002
465	0.8718000000000001
466	0.8697000000000001
467	0.8676000000000001
468	0.8655
469	0.8634000000000001
470	0.8608000000000001
471	0.8577000000000001
472	0.8545
473	0.8514
474	0.8482000000000001
475	0.8451000000000001
476	0.8419000000000001
477	0.8384
478	0.8345
479	0.8306000000000001
480	0.8266000000000001
481	0.8227000000000001
482	0.8188000000000001
483	0.8148000000000001
484	0.8109000000000001
485	0.8067000000000001
486	0.8025
487	0.7982999999999999
488	0.7940999999999999
489	0.7898999999999999
490	0.7857
491	0.7814999999999999
492	0.7775
493	0.7737
494	0.7698
495	0.766
496	0.7622
497	0.7583
498	0.7545
499	0.7507
500	0.7469
501	0.7424
502	0.7377
503	0.733
504	0.7282
505	0.7234999999999999
506	0.7188
507	0.7142999999999999
508	0.7098
509	0.7053999999999999
510	0.7009
511	0.6969
512	0.6929
513	0.6889
514	0.6854999999999999
515	0.6823999999999999
516	0.6791999999999999
517	0.6759999999999999
518	0.6717
519	0.6671999999999999
520	0.659
521	0.6444
522	0.6333
523	0.6247
524	0.5894999999999999
525	0.5537000000000001
526	0.5257000000000001
527	0.5393
528	0.5607000000000001
529	0.5292
530	0.45130000000000003
531	0.4506
532	0.4514
533	0.6812999999999999
534	0.6824999999999999
535	0.6823999999999999
536	0.6832999999999999
537	0.6808
538	0.6792999999999999
539	0.6768
540	0.6740999999999999
541	0.6714999999999999
542	0.6691999999999999
543	0.6677
544	0.6650999999999999
545	0.6673999999999999
546	0.6684999999999999
547	0.6698999999999999
548	0.6744999999999999
549	0.6819999999999999
550	0.6893999999999999
551	0.6968
552	0.7042999999999999
553	0.7117
554	0.7191
555	0.7266
556	0.734
557	0.7414
558	0.7489
559	0.7563
560	0.7636000000000001
561	0.7718
562	0.7823999999999999
563	0.7902999999999999
564	0.7960999999999999
565	0.8019000000000001
566	0.8077000000000001
567	0.8140000000000001
568	0.8203
569	0.8266000000000001
570	0.8329000000000001
571	0.8392000000000001
572	0.8455
573	0.8518000000000001
574	0.8572000000000001
575	0.8609000000000001
576	0.8646000000000001
577	0.8683000000000001
578	0.8720000000000001
579	0.8757000000000001
580	0.8795000000000001
581	0.8832
582	0.887
583	0.8907
584	0.8936000000000001
585	0.8962
586	0.8988
587	0.9014
588	0.904
589	0.9065
590	0.9083
591	0.91
592	0.9118
593	0.9135
594	0.9152
595	0.9163
596	0.9174
597	0.9185
598	0.9195
599	0.92
600	0.9205
601	0.921
602	0.9215
603	0.922
604	0.9225
605	0.9233
606	0.9241
607	0.9249
608	0.9257000000000001
609	0.9264
610	0.9268000000000001
611	0.9272
612	0.9276000000000001
613	0.9279000000000001
614	0.9283
615	0.9287000000000001
616	0.9291
617	0.9295
618	0.9298000000000001
619	0.9302
620	0.9303
621	0.9304
622	0.9305
623	0.9306000000000001
624	0.9304
625	0.9301
626	0.9299000000000001
627	0.9296000000000001
628	0.9294
629	0.9291
630	0.9289000000000001
631	0.9287000000000001
632	0.9284
633	0.9281
634	0.9278000000000001
635	0.9275
636	0.9271
637	0.9268000000000001
638	0.9265
639	0.9261
640	0.9258000000000001
641	0.9254
642	0.9244
643	0.9235
644	0.9226000000000001
645	0.9216000000000001
646	0.9207000000000001
647	0.9198000000000001
648	0.9188000000000001
649	0.9177000000000001
650	0.9161
651	0.9146000000000001
652	0.9136000000000001
653	0.9127000000000001
654	0.9118
655	0.9109
656	0.9111
657	0.9114
658	0.9116000000000001
659	0.9119
660	0.9121
661	0.9122
662	0.9123
663	0.9123
664	0.9121
665	0.9118
666	0.9108
667	0.9091
668	0.9074
669	0.8711000000000001
670	0.8337000000000001
671	0.8144
672	0.8346000000000001
673	0.8658000000000001
674	0.8971
675	0.9065
676	0.9077000000000001
677	0.9089
678	0.9095
679	0.91
680	0.9104
681	0.9103
682	0.9101
683	0.91
684	0.9099
685	0.9098
686	0.9097000000000001
687	0.9095
688	0.9091
689	0.909
690	0.9093
691	0.9095
692	0.9098
693	0.91
694	0.9103
695	0.9107000000000001
696	0.9112
697	0.9117000000000001
698	0.9122
699	0.9127000000000001
700	0.9134
701	0.914
702	0.9146000000000001
703	0.9152
704	0.9159
705	0.9164
706	0.9168000000000001
707	0.9173
708	0.9177000000000001
709	0.9181
710	0.9185
711	0.9187000000000001
712	0.9189
713	0.9192
714	0.9194
715	0.9189
716	0.9196000000000001
717	0.9195
718	0.9193
719	0.9192
720	0.9191
721	0.9189
722	0.9186000000000001
723	0.918
724	0.9175
725	0.917
726	0.9165
727	0.9159
728	0.9153
729	0.9147000000000001
730	0.9141
731	0.9135
732	0.9129
733	0.9123
734	0.9117000000000001
735	0.9111
736	0.9106000000000001
737	0.9102
738	0.9097000000000001
739	0.9093
740	0.9089
741	0.9084
742	0.908
743	0.9076000000000001
744	0.9074
745	0.9073
746	0.9071
747	0.9069
748	0.9068
749	0.9066000000000001
750	0.9064
751	0.9063
752	0.9061
753	0.906
754	0.9059
755	0.9058
756	0.9057000000000001
757	0.9056000000000001
758	0.9055
759	0.9054
760	0.9054
761	0.9055
762	0.9057000000000001
763	0.9059
764	0.9061
765	0.9063
766	0.9066000000000001
767	0.9068
768	0.907
769	0.9072
770	0.9074
771	0.9075
772	0.9077000000000001
773	0.9078
774	0.908
775	0.9081
776	0.9083
777	0.9084
778	0.9086000000000001
779	0.9087000000000001
780	0.9089
781	0.909
782	0.9092
783	0.9091
784	0.909
785	0.9089
786	0.9088
787	0.9087000000000001
788	0.9086000000000001
789	0.9084
790	0.9083
791	0.9082
792	0.9081
793	0.908
794	0.9078
795	0.9074
796	0.9071
797	0.9067000000000001
798	0.9063
799	0.9059
800	0.9056000000000001
801	0.9052
802	0.9048
803	0.9044
804	0.9039
805	0.9035
806	0.903
807	0.9026000000000001
808	0.9021
809	0.9016000000000001
810	0.9012
811	0.9007000000000001
812	0.9003
813	0.8998
814	0.8994
815	0.8987
816	0.8977
817	0.8966000000000001
818	0.8956000000000001
819	0.8946000000000001
820	0.8936000000000001
821	0.8926000000000001
822	0.8916000000000001
823	0.8906000000000001
824	0.8889
825	0.8872
826	0.8855
827	0.8838
828	0.8821
829	0.8804
830	0.8779000000000001
831	0.8753000000000001
832	0.8726000000000002
833	0.8699000000000001
834	0.8666000000000001
835	0.8630000000000001
836	0.8593000000000001
837	0.8557000000000001
838	0.8520000000000001
839	0.8468000000000001
840	0.8413
841	0.8357000000000001
842	0.8299000000000001
843	0.8231
844	0.8163
845	0.8094
846	0.8026000000000001
847	0.7949999999999999
848	0.7870999999999999
849	0.7793
850	0.7701
851	0.75
852	0.7252
853	0.7059
854	0.6910999999999999
855	0.6766
856	0.6641999999999999
857	0.6517000000000001
858	0.638
859	0.6216
860	0.6052
861	0.5888
862	0.5724
863	0.556
864	0.5396000000000001
865	0.5232
866	0.5068
867	0.47290000000000004
868	0.4465
869	0.41030000000000005
870	0.36169999999999997
871	0.3343
872	0.3182
873	0.3055
874	0.29430000000000006
875	0.28440000000000004
876	0.2746
877	0.2649
878	0.2557
879	0.24650000000000002
880	0.23720000000000002
881	0.22740000000000002
882	0.21720000000000003
883	0.20440000000000003
884	0.1945
885	0.188
886	0.1815
887	0.17440000000000003
888	0.167
889	0.15930000000000002
890	0.15120000000000003
891	0.14300000000000002
892	0.1338
893	0.1274
894	0.1228
895	0.12430000000000001
896	0.1259
897	0.1286
898	0.1311
899	0.1333
900	0.1336
901	0.1335
902	0.1322
903	0.1123
904	0.09129999999999999
905	0.0704
906	0.0494
907	0.0284
908	0.009899999999999999
909	0.011099999999999999
910	0.0166
911	0.0696
912	0.1155
913	0.1155
914	0.1158
915	0.1118
916	0.10840000000000001
917	0.10400000000000001
918	0.0992
919	0.0951
920	0.0932
921	0.0926
922	0.092
923	0.09179999999999999
924	0.0916
925	0.0919
926	0.0899
927	0.09620000000000001
928	0.09860000000000001
929	0.10170000000000001
930	0.10600000000000001
931	0.1104
932	0.117
933	0.12390000000000001
934	0.1338
935	0.1443
936	0.15990000000000004
937	0.1726
938	0.184
939	0.20270000000000002
940	0.2243
941	0.24150000000000002
942	0.2727
943	0.29530000000000006
944	0.3178
945	0.3404
946	0.363
947	0.3855
948	0.4081
949	0.43060000000000004
950	0.4532
951	0.47580000000000006
952	0.4983
953	0.5209
954	0.5422
955	0.5544
956	0.5633
957	0.5706000000000001
958	0.5779000000000001
959	0.585
960	0.5919
961	0.5988
962	0.6051
963	0.6088
964	0.6124999999999999
965	0.6151
966	0.6158
967	0.6187
968	0.616
969	0.6157
970	0.6144999999999999
971	0.6127
972	0.6087
973	0.5999
974	0.5887
975	0.5769000000000001
976	0.5667000000000001
977	0.5565
978	0.5472
979	0.5382
980	0.5291
981	0.48780000000000007
982	0.43150000000000005
983	0.3849
984	0.3769
985	0.3615
986	0.3543
987	0.3529
988	0.36519999999999997
989	0.3775
990	0.3899
991	0.3837
992	0.2881
993	0.2293
994	0.21990000000000004
995	0.21440000000000003
996	0.21400000000000002
997	0.2131
998	0.21280000000000002
999	0.2311
1000	0.24170000000000003
1001	0.2523
1002	0.2629
1003	0.2727
1004	0.27540000000000003
1005	0.27080000000000004
1006	0.26730000000000004
1007	0.25880000000000003
1008	0.24720000000000003
1009	0.2356
1010	0.20750000000000002
1011	0.17830000000000001
1012	0.14900000000000002
1013	0.1197
1014	0.08600000000000001
1015	0.0914
1016	0.11839999999999999
1017	0.13540000000000002
1018	0.13820000000000002
1019	0.3246
1020	0.32630000000000003
1021	0.3255
1022	0.3241
1023	0.3211
1024	0.3161
1025	0.3143
1026	0.3136
1027	0.3138
1028	0.3143
1029	0.3157
1030	0.3178
1031	0.32999999999999996
1032	0.33719999999999994
1033	0.3444
1034	0.35159999999999997
1035	0.35869999999999996
1036	0.3659
1037	0.3731
1038	0.3803
1039	0.3875
1040	0.3947
1041	0.40190000000000003
1042	0.4091
1043	0.41630000000000006
1044	0.42340000000000005
1045	0.43400000000000005
1046	0.4404
1047	0.4482
1048	0.4559
1049	0.4721
1050	0.5153
1051	0.5243
1052	0.536
1053	0.5492
1054	0.5677000000000001
1055	0.5862999999999999
1056	0.598
1057	0.6093
1058	0.6202
1059	0.6304
1060	0.6389
1061	0.6474
1062	0.6558
1063	0.6639999999999999
1064	0.6722999999999999
1065	0.6799999999999999
1066	0.6876
1067	0.6944999999999999
1068	0.7001999999999999
1069	0.706
1070	0.7131
1071	0.7204999999999999
1072	0.7283
1073	0.7372
1074	0.7456
1075	0.7539
1076	0.7627
1077	0.7726000000000001
1078	0.7831999999999999
1079	0.7927
1080	0.7988
1081	0.805
1082	0.8116000000000001
1083	0.8203
1084	0.8291000000000001
1085	0.8383
1086	0.8479000000000001
1087	0.8576000000000001
1088	0.8621000000000001
1089	0.8667000000000001
1090	0.8713000000000001
1091	0.8749000000000001
1092	0.8782000000000001
1093	0.8815
1094	0.8848
1095	0.8883
1096	0.8918
1097	0.8953
1098	0.8983
1099	0.901
1100	0.903
1101	0.9051
1102	0.9065
1103	0.908
1104	0.9094
1105	0.9109
1106	0.9124
1107	0.914
1108	0.9151
1109	0.9158000000000001
1110	0.9165
1111	0.9172
1112	0.9179
1113	0.9186000000000001
1114	0.9193
1115	0.9195
1116	0.9196000000000001
1117	0.9198000000000001
1118	0.92
1119	0.9201
1120	0.9203
1121	0.9204
1122	0.9203
1123	0.9202
1124	0.9201
1125	0.92
1126	0.92
1127	0.9199
1128	0.9198000000000001
1129	0.9197000000000001
1130	0.9196000000000001
1131	0.9191
1132	0.9186000000000001
1133	0.9181
1134	0.9176000000000001
1135	0.9171
1136	0.9166000000000001
1137	0.9161
1138	0.9156000000000001
1139	0.9151
1140	0.9147000000000001
1141	0.9143
1142	0.914
1143	0.914
1144	0.9143
1145	0.9146000000000001
1146	0.9148000000000001
1147	0.9151
1148	0.9153
1149	0.9156000000000001
1150	0.9158000000000001
1151	0.9161
1152	0.9163
1153	0.9166000000000001
1154	0.9169
1155	0.9171
1156	0.9174
1157	0.9176000000000001
1158	0.9178000000000001
1159	0.9178000000000001
1160	0.9179
1161	0.918
1162	0.9181
1163	0.9182
1164	0.9182
1165	0.9183
1166	0.9184
1167	0.9185
1168	0.9187000000000001
1169	0.9223
1170	0.919
1171	0.9192
1172	0.9189
1173	0.9183
1174	0.9177000000000001
1175	0.917
1176	0.9163
1177	0.9157000000000001
1178	0.915
1179	0.9143
1180	0.9137000000000001
1181	0.9136000000000001
1182	0.9145
1183	0.9163
1184	0.9181
1185	0.9197000000000001
1186	0.9206000000000001
1187	0.9216000000000001
1188	0.9225
1189	0.9231
1190	0.9237000000000001
1191	0.9244
1192	0.9247000000000001
1193	0.9249
1194	0.9251
1195	0.9253
1196	0.9253
1197	0.9252
1198	0.9252
1199	0.9251
1200	0.925
1201	0.9249
1202	0.9247000000000001
1203	0.9244
1204	0.9241
1205	0.9238000000000001
1206	0.9236000000000001
1207	0.9233
1208	0.923
1209	0.9228000000000001
1210	0.9225
1211	0.9222
1212	0.922
1213	0.9217000000000001
1214	0.9214
1215	0.921
1216	0.9205
1217	0.9201
1218	0.9197000000000001
1219	0.9193
1220	0.9188000000000001
1221	0.9184
1222	0.918
1223	0.9174
1224	0.9169
1225	0.9163
1226	0.9158000000000001
1227	0.9152
1228	0.9147000000000001
1229	0.9141
1230	0.9133
1231	0.9125
1232	0.9117000000000001
1233	0.9109
1234	0.909
1235	0.9072
1236	0.9051
1237	0.9029
1238	0.9008
1239	0.8986000000000001
1240	0.8964
1241	0.8934
1242	0.8903
1243	0.8872
1244	0.8842
1245	0.8814
1246	0.8786000000000002
1247	0.8758000000000001
1248	0.8729000000000001
1249	0.8702000000000001
1250	0.8678000000000001
1251	0.8655
1252	0.8632000000000001
1253	0.8609000000000001
1254	0.8590000000000001
1255	0.8573000000000001
1256	0.8556000000000001
1257	0.8540000000000001
1258	0.8523000000000001
1259	0.8507000000000001
1260	0.8500000000000001
1261	0.8492000000000001
1262	0.8485
1263	0.8477000000000001
1264	0.8476000000000001
1265	0.8476000000000001
1266	0.8476000000000001
1267	0.8476000000000001
1268	0.8477000000000001
1269	0.8478000000000001
1270	0.8479000000000001
1271	0.8480000000000001
1272	0.8477000000000001
1273	0.8474
1274	0.8491000000000001
1275	0.8448000000000001
1276	0.8431000000000001
1277	0.8406000000000001
1278	0.8380000000000001
1279	0.8347000000000001
1280	0.8304
1281	0.8200000000000001
1282	0.8130000000000001
1283	0.8105
1284	0.8113
1285	0.8093
1286	0.8159000000000001
1287	0.8191
1288	0.8230000000000001
1289	0.8280000000000001
1290	0.8326000000000001
1291	0.8371000000000001
1292	0.8423
1293	0.8478000000000001
1294	0.8519000000000001
1295	0.8551000000000001
1296	0.8567000000000001
1297	0.8572000000000001
1298	0.8572000000000001
1299	0.8592000000000001
1300	0.8551000000000001
1301	0.8532000000000001
1302	0.8473
1303	0.8382000000000001
1304	0.8317000000000001
1305	0.8309000000000001
1306	0.8306000000000001
1307	0.8317000000000001
1308	0.8323
1309	0.8334
1310	0.8350000000000001
1311	0.8371000000000001
1312	0.8395
1313	0.8422000000000001
1314	0.8453
1315	0.8483
1316	0.8506000000000001
1317	0.8529000000000001
1318	0.8551000000000001
1319	0.8574
1320	0.8600000000000001
1321	0.8625
1322	0.8642000000000001
1323	0.8659000000000001
1324	0.8675
1325	0.8692000000000001
1326	0.8703000000000001
1327	0.8712000000000001
1328	0.8719000000000001
1329	0.8719000000000001
1330	0.8719000000000001
1331	0.8719000000000001
1332	0.8719000000000001
1333	0.8719000000000001
1334	0.8718000000000001
1335	0.8716000000000002
1336	0.8715
1337	0.8714000000000001
1338	0.8713000000000001
1339	0.8712000000000001
1340	0.8711000000000001
1341	0.8708000000000001
1342	0.8706000000000002
1343	0.8704000000000001
1344	0.8701000000000001
1345	0.8699000000000001
1346	0.8697000000000001
1347	0.8692000000000001
1348	0.8684000000000001
1349	0.8676000000000001
1350	0.8668000000000001
1351	0.8660000000000001
1352	0.8652000000000001
1353	0.8632000000000001
1354	0.8613000000000001
1355	0.8593000000000001
1356	0.8574
1357	0.8542000000000001
1358	0.8509000000000001
1359	0.8470000000000001
1360	0.8421000000000001
1361	0.8353
1362	0.8274
1363	0.8154
1364	0.8033
1365	0.7898999999999999
1366	0.7754
1367	0.7547
1368	0.7417
1369	0.729
1370	0.7198
1371	0.7106
1372	0.6648
1373	0.6642999999999999
1374	0.6656
1375	0.6668
1376	0.6692999999999999
1377	0.6822999999999999
1378	0.699
1379	0.7397
1380	0.7803999999999999
1381	0.8042
1382	0.7749
1383	0.6982999999999999
1384	0.6372
1385	0.6391
1386	0.7921999999999999
1387	0.7926
1388	0.7471
1389	0.7231
1390	0.699
1391	0.6852999999999999
1392	0.6847
1393	0.6949
1394	0.709
1395	0.723
1396	0.737
1397	0.7511
1398	0.7651
1399	0.7791
1400	0.7931999999999999
1401	0.8112
1402	0.8272
1403	0.8321000000000001
1404	0.8352
1405	0.8375
1406	0.8388000000000001
1407	0.8402000000000001
1408	0.8413
1409	0.8420000000000001
1410	0.8428000000000001
1411	0.8430000000000001
1412	0.8432000000000001
1413	0.8428000000000001
1414	0.8423
1415	0.8418000000000001
1416	0.8412000000000001
1417	0.8404
1418	0.8397000000000001
1419	0.8389000000000001
1420	0.8391000000000001
1421	0.8392000000000001
1422	0.8393
1423	0.8399000000000001
1424	0.8409000000000001
1425	0.8418000000000001
1426	0.8428000000000001
1427	0.8444
1428	0.8460000000000001
1429	0.8476000000000001
1430	0.8494
1431	0.8515
1432	0.8523000000000001
1433	0.8527000000000001
1434	0.8522000000000001
1435	0.8517000000000001
1436	0.8502000000000001
1437	0.8487000000000001
1438	0.8471000000000001
1439	0.8456000000000001
1440	0.8443
1441	0.8443
1442	0.8443
1443	0.8443
1444	0.8450000000000001
1445	0.8458000000000001
1446	0.8467000000000001
1447	0.8476000000000001
1448	0.8486000000000001
1449	0.8499000000000001
1450	0.8512000000000001
1451	0.8525
1452	0.8539000000000001
1453	0.8563000000000001
1454	0.8586000000000001
1455	0.8609000000000001
1456	0.8625
1457	0.8634000000000001
1458	0.8643000000000001
1459	0.8645
1460	0.8667000000000001
1461	0.8631000000000001
1462	0.8622000000000001
1463	0.8613000000000001
1464	0.8604
1465	0.8593000000000001
1466	0.8583000000000001
1467	0.8569000000000001
1468	0.8552000000000001
1469	0.8534
1470	0.8516000000000001
1471	0.8498000000000001
1472	0.8479000000000001
1473	0.8461000000000001
1474	0.8442000000000001
1475	0.8424
1476	0.8402000000000001
1477	0.8378000000000001
1478	0.8354
1479	0.8299000000000001
1480	0.812
1481	0.7932999999999999
1482	0.7940999999999999
1483	0.7989999999999999
1484	0.8156000000000001
1485	0.8322
1486	0.8392000000000001
1487	0.8419000000000001
1488	0.8437000000000001
1489	0.8458000000000001
1490	0.8441000000000001
1491	0.8437000000000001
1492	0.8433
1493	0.8427000000000001
1494	0.8416000000000001
1495	0.8405
1496	0.8388000000000001
1497	0.8378000000000001
1498	0.8372
1499	0.8369000000000001
1500	0.8331000000000001
1501	0.8420000000000001
1502	0.8440000000000001
1503	0.8467000000000001
1504	0.8495
1505	0.8522000000000001
1506	0.8544
1507	0.8567000000000001
1508	0.8589000000000001
1509	0.8612000000000001
1510	0.8634000000000001
1511	0.8647000000000001
1512	0.8657000000000001
1513	0.8667000000000001
1514	0.8679000000000001
1515	0.8691000000000001
1516	0.8703000000000001
1517	0.8720000000000001
1518	0.8738000000000001
1519	0.8756000000000002
1520	0.8768000000000001
1521	0.8780000000000001
1522	0.8792000000000001
1523	0.8804
1524	0.8813
1525	0.8821
1526	0.8828
1527	0.8835
1528	0.8842
1529	0.8849
1530	0.8856
1531	0.8863
1532	0.8867
1533	0.8871
1534	0.8874
1535	0.8878
1536	0.8881
1537	0.8885
1538	0.8885
1539	0.8881
1540	0.8877
1541	0.8872
1542	0.8868
1543	0.8906000000000001
1544	0.8851
1545	0.8836
1546	0.8821
1547	0.8806
1548	0.8788000000000001
1549	0.8768000000000001
1550	0.8749000000000001
1551	0.8730000000000001
1552	0.8711000000000001
1553	0.8691000000000001
1554	0.8670000000000001
1555	0.8648000000000001
1556	0.8625
1557	0.8602000000000001
1558	0.8579000000000001
1559	0.8557000000000001
1560	0.8513000000000001
1561	0.8466000000000001
1562	0.8420000000000001
1563	0.8373
1564	0.8327000000000001
1565	0.8257000000000001
1566	0.8169000000000001
1567	0.8082
1568	0.7987
1569	0.7867
1570	0.7748
1571	0.7622
1572	0.7462
1573	0.7302
1574	0.7008
1575	0.6604999999999999
1576	0.6202
1577	0.5799000000000001
1578	0.5396000000000001
1579	0.4993
1580	0.459
1581	0.4187
1582	0.3784
1583	0.33809999999999996
1584	0.29780000000000006
1585	0.2575
1586	0.21720000000000003
1587	0.1922
1588	0.182
1589	0.1851
1590	0.1829
1591	0.1968
1592	0.23940000000000003
1593	0.2821
1594	0.3247
1595	0.3576
1596	0.35619999999999996
1597	0.3579
1598	0.35119999999999996
1599	0.3408
1600	0.3119
1601	0.2831
1602	0.2542
1603	0.22540000000000002
1604	0.1965
1605	0.16770000000000002
1606	0.15770000000000003
1607	0.15880000000000002
1608	0.15980000000000003
1609	0.16620000000000001
1610	0.2005
1611	0.2582
1612	0.3159
1613	0.3736
1614	0.43130000000000007
1615	0.48900000000000005
1616	0.5467000000000001
1617	0.6043999999999999
1618	0.6621999999999999
1619	0.7111
1620	0.7919999999999999
1621	0.8268000000000001
1622	0.8362
1623	0.8431000000000001
1624	0.8463
1625	0.8473
1626	0.8483
1627	0.8490000000000001
1628	0.8493
1629	0.8496000000000001
1630	0.8500000000000001
1631	0.8502000000000001
1632	0.8505
1633	0.8507000000000001
1634	0.8509000000000001
